 ICARUS is an s- process nucleosynthesis code that calculates MACS and RR.
 Authored by Zain Ul Abideen (dominuszain@gmail.com) as part of the FYP.
 
 col1: Energy (keV)
 col2: MACS (mb)
 col3: RR (cm3 s-1 mol-1)
 
           5   74.789052391498188        4427559.9105910398     
          10   46.139190831011348        3862881.5163453338     
          15   34.542439510717081        3541930.6127356449     
          20   28.282619829061780        3348698.4984416291     
          25   24.383381006150746        3227790.5287497686     
          30   21.734062084266331        3151686.0133804833     
          35   19.825317483074610        3105242.9664468626     
          40   18.390601594171901        3079408.7929625916     
          45   17.276846811827234        3068401.2651361474     
          50   16.389793211024479        3068314.6244354891     
          55   15.668092228136780        3076372.1973898797     
          60   15.069958586193962        3090502.4894109289     
          65   14.565836581621184        3109091.6559423716     
          70   14.134164190065718        3130837.7793486044     
          75   13.758821046051246        3154665.1454024534     
          80   13.427529810005302        3179673.5369148143     
          85   13.130815571926625        3205107.3352605486     
          90   12.861302055674287        3230335.3239740455     
          95   12.613217639989735        3254835.9628079277     
         100   12.382036673096826        3278185.3090818361     
         105   12.164211325649156        3300046.1979512284     
         110   11.956966377123385        3320158.0984791787     
         115   11.758139360617978        3338327.4779738602     
         120   11.566054461892305        3354418.6941410797     

 ICARUS congratulates you on performing a successful calculation.
